id,position.x,position.y,position.z,quaternion.w,quaternion.x,quaternion.y,quaternion.z
000000,45.361671448,0.824498236,41.816684723,0.098014623,0.003951457,0.995158613,-0.006074955
000001,45.361671448,0.824498236,41.816684723,0.098014623,0.003951457,0.995158613,-0.006074955
000002,45.361675262,0.824498594,41.816665649,0.098014630,0.003952338,0.995158672,-0.006075221
000003,45.361682892,0.824499428,41.816623688,0.098014623,0.003954837,0.995158613,-0.006075632
000004,45.361690521,0.824500799,41.816558838,0.098014615,0.003957625,0.995158553,-0.006076732
000005,45.361701965,0.824502587,41.816474915,0.098014623,0.003962084,0.995158613,-0.006077868
000006,45.361713409,0.824504793,41.816371918,0.098014608,0.003966955,0.995158494,-0.006079779
000007,45.361728668,0.824507654,41.816242218,0.098014608,0.003973701,0.995158494,-0.006081912
000008,45.361747742,0.824510872,41.816093445,0.098014608,0.003981621,0.995158494,-0.006084464
000009,45.361766815,0.824514508,41.815929413,0.098014601,0.003990815,0.995158374,-0.006087451
000010,45.361789703,0.824518681,41.815738678,0.098014601,0.004001487,0.995158374,-0.006091167
000011,45.361812592,0.824523151,41.815528870,0.098014586,0.004013526,0.995158255,-0.006095327
000012,45.361843109,0.824527860,41.815299988,0.098014578,0.004027712,0.995158136,-0.006099672
000013,45.361869812,0.824532688,41.815048218,0.098014563,0.004042773,0.995158017,-0.006104885
000014,45.361896515,0.824537635,41.814773560,0.098014563,0.004060158,0.995158017,-0.006110454
000015,45.361930847,0.824542403,41.814483643,0.098014556,0.004079062,0.995157897,-0.006116437
000016,45.361965179,0.824547112,41.814170837,0.098014541,0.004099411,0.995157778,-0.006122828
000017,45.361999512,0.824551702,41.813835144,0.098014526,0.004121244,0.995157599,-0.006129871
000018,45.362037659,0.824556291,41.813480377,0.098014504,0.004144432,0.995157421,-0.006136696
000019,45.362079620,0.824561119,41.813102722,0.098014496,0.004167198,0.995157301,-0.006144136
000020,45.362129211,0.824566424,41.812705994,0.098014474,0.004190687,0.995157123,-0.006151190
000021,45.362174988,0.824572206,41.812286377,0.098014474,0.004215028,0.995157063,-0.006159117
000022,45.362224579,0.824578702,41.811843872,0.098014444,0.004242677,0.995156825,-0.006167567
000023,45.362274170,0.824585855,41.811386108,0.098014437,0.004274356,0.995156705,-0.006176336
000024,45.362316132,0.824594438,41.810905457,0.098014414,0.004310418,0.995156467,-0.006187058
000025,45.362358093,0.824604511,41.810405731,0.098014392,0.004351587,0.995156229,-0.006199174
000026,45.362392426,0.824616730,41.809890747,0.098014355,0.004397917,0.995155871,-0.006212936
000027,45.362426758,0.824631095,41.809356689,0.098014332,0.004448561,0.995155632,-0.006227710
000028,45.362464905,0.824647784,41.808803558,0.098014288,0.004500996,0.995155215,-0.006243726
000029,45.362506866,0.824666440,41.808227539,0.098014258,0.004550962,0.995154917,-0.006260655
000030,45.362560272,0.824687004,41.807628632,0.098014228,0.004597215,0.995154619,-0.006276384
000031,45.362625122,0.824710786,41.807003021,0.098014198,0.004640636,0.995154262,-0.006290995
000032,45.362697601,0.824737549,41.806358337,0.098014176,0.004682019,0.995154023,-0.006303503
000033,45.362773895,0.824767172,41.805679321,0.098014154,0.004721940,0.995153904,-0.006314631
000034,45.362854004,0.824796557,41.804981232,0.098014131,0.004761812,0.995153666,-0.006323029
000035,45.362937927,0.824823201,41.804256439,0.098014101,0.004802110,0.995153368,-0.006329796
000036,45.363025665,0.824844718,41.803508759,0.097979441,0.004841916,0.995156586,-0.006335705
000037,45.363128662,0.824859381,41.802742004,0.097909898,0.004876190,0.995163202,-0.006342805
000038,45.363250732,0.824866533,41.801956177,0.097805709,0.004900316,0.995173216,-0.006352704
000039,45.363395691,0.824867845,41.801151276,0.097666666,0.004912544,0.995186746,-0.006366516
000040,45.363559723,0.824866712,41.800327301,0.097492963,0.004916483,0.995203674,-0.006383711
000041,45.363746643,0.824863553,41.799488068,0.097284622,0.004907378,0.995223939,-0.006408831
000042,45.363971710,0.824856997,41.798641205,0.097041406,0.004879670,0.995247662,-0.006440782
000043,45.364223480,0.824847519,41.797779083,0.096763536,0.004836006,0.995274663,-0.006478766
000044,45.364494324,0.824836016,41.796890259,0.096450776,0.004783740,0.995305002,-0.006516902
000045,45.364772797,0.824825823,41.795967102,0.096103378,0.004726023,0.995338678,-0.006546814
000046,45.365055084,0.824818850,41.794998169,0.095721312,0.004669499,0.995375574,-0.006561340
000047,45.365325928,0.824814558,41.793983459,0.095304377,0.004618294,0.995415866,-0.006560907
000048,45.365596771,0.824809134,41.792938232,0.094852746,0.004569076,0.995459199,-0.006556245
000049,45.365871429,0.824800134,41.791889191,0.094366223,0.004517773,0.995505691,-0.006561799
000050,45.366153717,0.824788332,41.790843964,0.093844995,0.004469244,0.995555043,-0.006582419
000051,45.366424561,0.824776411,41.789787292,0.093288861,0.004427713,0.995607316,-0.006610529
000052,45.366683960,0.824767292,41.788700104,0.092698030,0.004397260,0.995662510,-0.006633222
000053,45.366920471,0.824761510,41.787570953,0.092072509,0.004377479,0.995720565,-0.006642509
000054,45.367156982,0.824757874,41.786403656,0.091412053,0.004358870,0.995781541,-0.006638375
000055,45.367385864,0.824759305,41.785179138,0.090716906,0.004346982,0.995845377,-0.006613273
000056,45.367614746,0.824764252,41.783916473,0.089986809,0.004332180,0.995911837,-0.006583076
000057,45.367877960,0.824765801,41.782672882,0.089221992,0.004302002,0.995980918,-0.006574526
000058,45.368167877,0.824760377,41.781459808,0.088422433,0.004256657,0.996052146,-0.006601947
000059,45.368450165,0.824750245,41.780269623,0.087587893,0.004221000,0.996125698,-0.006658857
000060,45.368682861,0.824741602,41.779083252,0.086718582,0.004219741,0.996201217,-0.006727445
000061,45.368835449,0.824741006,41.777854919,0.085814297,0.004264207,0.996278942,-0.006777683
000062,45.368927002,0.824744582,41.776535034,0.084875256,0.004347250,0.996359050,-0.006783621
000063,45.368991852,0.824743032,41.775146484,0.083901472,0.004443023,0.996441305,-0.006759911
000064,45.369064331,0.824734867,41.773727417,0.082892694,0.004537090,0.996525466,-0.006732293
000065,45.369148254,0.824725032,41.772304535,0.081849113,0.004623249,0.996611416,-0.006718512
000066,45.369247437,0.824719191,41.770881653,0.080770537,0.004698310,0.996699035,-0.006717553
000067,45.369335175,0.824726999,41.769420624,0.079657152,0.004783436,0.996788383,-0.006706693
000068,45.369388580,0.824752331,41.767940521,0.078508958,0.004890448,0.996878982,-0.006695513
000069,45.369422913,0.824784636,41.766422272,0.077360675,0.005006042,0.996968269,-0.006678000
000070,45.369476318,0.824817538,41.764823914,0.076212302,0.005110078,0.997056603,-0.006622116
000071,45.369632721,0.824835420,41.763202667,0.075063847,0.005148968,0.997143865,-0.006573814
000072,45.369911194,0.824833989,41.761650085,0.073915295,0.005114890,0.997229755,-0.006582924
000073,45.370231628,0.824823260,41.760089874,0.072766647,0.005054615,0.997314394,-0.006610396
000074,45.370567322,0.824812889,41.758563995,0.071617894,0.004988282,0.997397482,-0.006667507
000075,45.370895386,0.824814200,41.757080078,0.070469022,0.004928497,0.997478783,-0.006766627
000076,45.371250153,0.824822724,41.755634308,0.069320031,0.004856966,0.997558773,-0.006907113
000077,45.371658325,0.824836969,41.754230499,0.068170950,0.004750952,0.997637272,-0.007086499
000078,45.372138977,0.824852943,41.752849579,0.067021765,0.004599317,0.997714221,-0.007297910
000079,45.372623444,0.824866533,41.751361847,0.065872528,0.004445199,0.997790277,-0.007457662
000080,45.373027802,0.824872136,41.749717712,0.064723223,0.004331158,0.997865498,-0.007529028
000081,45.373432159,0.824856758,41.748046875,0.063573845,0.004217423,0.997939408,-0.007598337
000082,45.373893738,0.824819982,41.746364594,0.062424373,0.004066928,0.998012006,-0.007677955
000083,45.374305725,0.824782133,41.744678497,0.061274808,0.003948400,0.998082936,-0.007763630
000084,45.374610901,0.824756622,41.743011475,0.060125142,0.003895326,0.998152256,-0.007875501
000085,45.374790192,0.824753046,41.741275787,0.058975384,0.003919164,0.998220146,-0.007951775
000086,45.374931335,0.824764729,41.739471436,0.057825558,0.003962875,0.998286843,-0.007995840
000087,45.375148773,0.824777603,41.737720490,0.056675650,0.003959725,0.998352051,-0.008092334
000088,45.375434875,0.824794650,41.736015320,0.055525664,0.003914855,0.998415709,-0.008236297
000089,45.375774384,0.824816585,41.734291077,0.054375600,0.003838344,0.998478055,-0.008379842
000090,45.376037598,0.824848592,41.732463837,0.053225480,0.003804034,0.998539448,-0.008472177
000091,45.376243591,0.824873149,41.730518341,0.052075315,0.003797264,0.998599827,-0.008504412
000092,45.376525879,0.824872375,41.728538513,0.050925098,0.003745068,0.998659074,-0.008530010
000093,45.376899719,0.824853361,41.726600647,0.049774799,0.003634223,0.998716891,-0.008599377
000094,45.377288818,0.824838758,41.724674225,0.048624422,0.003515067,0.998773217,-0.008689770
000095,45.377582550,0.824838161,41.722675323,0.047473993,0.003448957,0.998828292,-0.008747135
000096,45.377819061,0.824828863,41.720645905,0.046323501,0.003419797,0.998881996,-0.008795802
000097,45.378078461,0.824796200,41.718681335,0.045172915,0.003373042,0.998933852,-0.008901564
000098,45.378326416,0.824751675,41.716728210,0.044022270,0.003338471,0.998984277,-0.009030299
000099,45.378479004,0.824717402,41.714794159,0.042871553,0.003358720,0.999032855,-0.009178848
000100,45.378517151,0.824715495,41.712757111,0.041720789,0.003443661,0.999080420,-0.009275298
000101,45.378520966,0.824734449,41.710533142,0.040570009,0.003544455,0.999127567,-0.009267432
000102,45.378501892,0.824759781,41.708259583,0.039453954,0.003659847,0.999171972,-0.009243898
000103,45.378551483,0.824776769,41.706085205,0.038372617,0.003733099,0.999213278,-0.009300720
000104,45.378627777,0.824811578,41.703914642,0.037326258,0.003788076,0.999252081,-0.009371896
000105,45.378681183,0.824884474,41.701633453,0.036314651,0.003853122,0.999288917,-0.009387000
000106,45.378677368,0.824975610,41.699081421,0.035338081,0.003949001,0.999324918,-0.009245930
000107,45.378738403,0.825065672,41.696376801,0.034396295,0.003999765,0.999359548,-0.009025138
000108,45.378715515,0.825143099,41.693527222,0.033489287,0.004095700,0.999392688,-0.008727792
000109,45.378490448,0.825219333,41.690658569,0.032617241,0.004318169,0.999423087,-0.008427658
000110,45.378288269,0.825289845,41.687931061,0.031779937,0.004530811,0.999450743,-0.008228805
000111,45.378162384,0.825357556,41.685459137,0.030977588,0.004699409,0.999475360,-0.008206264
000112,45.378051758,0.825430036,41.683036804,0.030210009,0.004856691,0.999497950,-0.008230353
000113,45.377880096,0.825507641,41.680461884,0.029477216,0.005053210,0.999519289,-0.008171369
000114,45.377750397,0.825579107,41.677825928,0.028779449,0.005216072,0.999539495,-0.008087558
000115,45.377754211,0.825640142,41.675312042,0.028116455,0.005301582,0.999557793,-0.008098445
000116,45.377845764,0.825702965,41.673004150,0.027488455,0.005332304,0.999573886,-0.008253063
000117,45.377967834,0.825771093,41.670616150,0.026895253,0.005344125,0.999588966,-0.008374345
000118,45.378097534,0.825865626,41.668098450,0.026336851,0.005345313,0.999603391,-0.008424655
000119,45.378082275,0.825987577,41.665554047,0.025813462,0.005436350,0.999616086,-0.008472365
000120,45.378059387,0.826094627,41.663208008,0.025324836,0.005539034,0.999626577,-0.008655668
000121,45.377994537,0.826159537,41.660972595,0.024871217,0.005667243,0.999634862,-0.008923047
000122,45.377952576,0.826189160,41.658630371,0.024452401,0.005776035,0.999642551,-0.009135683
000123,45.377872467,0.826227069,41.656078339,0.024068644,0.005909010,0.999650240,-0.009233820
000124,45.377758026,0.826300502,41.653381348,0.023719698,0.006060212,0.999657631,-0.009249542
000125,45.377552032,0.826380432,41.650756836,0.023405520,0.006269855,0.999662936,-0.009328091
000126,45.377384186,0.826435268,41.648429871,0.023126338,0.006459870,0.999665558,-0.009606131
000127,45.377296448,0.826452076,41.646183014,0.022881944,0.006601120,0.999666929,-0.009947564
000128,45.377319336,0.826454878,41.643749237,0.022672616,0.006670645,0.999668837,-0.010188333
000129,45.377407074,0.826440215,41.641105652,0.022498116,0.006698414,0.999671340,-0.010312401
000130,45.377532959,0.826380968,41.638595581,0.022358397,0.006702594,0.999672115,-0.010535426
000131,45.377700806,0.826344669,41.636116028,0.022253707,0.006685015,0.999671936,-0.010787568
000132,45.377914429,0.826362371,41.633495331,0.022183837,0.006632632,0.999671698,-0.010971906
000133,45.378231049,0.826410890,41.630508423,0.022149064,0.006516589,0.999673605,-0.010939338
000134,45.378566742,0.826427400,41.627456665,0.022149095,0.006386896,0.999675095,-0.010878529
000135,45.378887177,0.826421142,41.624496460,0.022149110,0.006268529,0.999675691,-0.010891924
000136,45.379192352,0.826427341,41.621547699,0.022183916,0.006161808,0.999675274,-0.010922944
000137,45.379501343,0.826449633,41.618293762,0.022253798,0.006049231,0.999675989,-0.010778066
000138,45.379783630,0.826515257,41.614948273,0.022358486,0.005955833,0.999676168,-0.010590415
000139,45.379924774,0.826574981,41.611911774,0.022498151,0.005955596,0.999672949,-0.010606620
000140,45.379940033,0.826631665,41.609096527,0.022672568,0.006038188,0.999666691,-0.010772693
000141,45.379917145,0.826688707,41.606105804,0.022881797,0.006142836,0.999660492,-0.010842928
000142,45.379974365,0.826742887,41.602947235,0.023126088,0.006201772,0.999654770,-0.010820559
000143,45.380084991,0.826753199,41.600002289,0.023405140,0.006228660,0.999646723,-0.010948572
000144,45.380321503,0.826784551,41.597118378,0.023719223,0.006181423,0.999637663,-0.011128776
000145,45.380744934,0.826852381,41.594070435,0.024068138,0.006019370,0.999629200,-0.011223597
000146,45.381221771,0.826887608,41.590831757,0.024451880,0.005819805,0.999621212,-0.011215091
000147,45.381713867,0.826886177,41.587608337,0.024870647,0.005617597,0.999611914,-0.011227041
000148,45.382225037,0.826908469,41.584449768,0.025324186,0.005408092,0.999600947,-0.011296530
000149,45.382881165,0.826960266,41.581020355,0.025812812,0.005103253,0.999590933,-0.011209473
000150,45.383651733,0.827046454,41.577327728,0.026336281,0.004728411,0.999581754,-0.010976654
000151,45.384124756,0.827136695,41.573680878,0.026894737,0.004544123,0.999569774,-0.010780335
000152,45.384346008,0.827203035,41.570018768,0.027487963,0.004521227,0.999555945,-0.010583057
000153,45.384544373,0.827262044,41.566207886,0.028115995,0.004511520,0.999541461,-0.010305385
000154,45.384651184,0.827302635,41.562625885,0.028778989,0.004567610,0.999523520,-0.010185424
000155,45.384868622,0.827334404,41.559169769,0.029476749,0.004559680,0.999503434,-0.010158708
000156,45.385414124,0.827390790,41.555545807,0.030209577,0.004349202,0.999483645,-0.010048226
000157,45.385955811,0.827486575,41.551811218,0.030977195,0.004143874,0.999462724,-0.009876684
000158,45.386291504,0.827589810,41.548133850,0.031779565,0.004073791,0.999439061,-0.009756604
000159,45.386619568,0.827697814,41.544284821,0.032616954,0.004010101,0.999414384,-0.009538426
000160,45.387241364,0.827801943,41.539936066,0.033489238,0.003753969,0.999391258,-0.009028942
000161,45.388149261,0.827880740,41.535358429,0.034396574,0.003324404,0.999367595,-0.008394885
000162,45.389106750,0.827934027,41.530975342,0.035338618,0.002870567,0.999340057,-0.007899253
000163,45.390178680,0.827991426,41.526554108,0.036315430,0.002346752,0.999310315,-0.007396342
000164,45.391155243,0.828065217,41.522399902,0.037327159,0.001896295,0.999276221,-0.007072708
000165,45.391860962,0.828154087,41.518474579,0.038373582,0.001625925,0.999238372,-0.006899624
000166,45.392692566,0.828251243,41.514366150,0.039455004,0.001278770,0.999198616,-0.006630622
000167,45.393589020,0.828293562,41.510314941,0.040571153,0.000897842,0.999155700,-0.006410943
000168,45.394512177,0.828306973,41.506637573,0.041721955,0.000517419,0.999108374,-0.006438790
000169,45.395458221,0.828352809,41.503032684,0.042907700,0.000128612,0.999057770,-0.006514696
000170,45.396545410,0.828449488,41.499343872,0.044128165,-0.000340085,0.999004364,-0.006540308
000171,45.397907257,0.828555763,41.495910645,0.045383498,-0.000971517,0.998946488,-0.006735148
000172,45.399349213,0.828637302,41.492473602,0.046673514,-0.001645852,0.998884797,-0.006930060
000173,45.400615692,0.828683197,41.488616943,0.047998525,-0.002217015,0.998821437,-0.006858454
000174,45.401592255,0.828697562,41.484600067,0.049358264,-0.002604645,0.998755515,-0.006679533
000175,45.402729034,0.828757882,41.480522156,0.050752662,-0.003086511,0.998685658,-0.006466197
000176,45.404190063,0.828883588,41.476280212,0.052181926,-0.003774906,0.998611450,-0.006162651
000177,45.405517578,0.828993738,41.472129822,0.053645823,-0.004367919,0.998533070,-0.005912532
000178,45.407001495,0.829101622,41.468246460,0.055144489,-0.005043521,0.998448670,-0.005837453
000179,45.408683777,0.829170227,41.464275360,0.056677733,-0.005838668,0.998359203,-0.005712415
000180,45.410118103,0.829161286,41.460311890,0.058245603,-0.006472924,0.998265743,-0.005587005
000181,45.411289215,0.829182982,41.456443787,0.059848323,-0.006933194,0.998168170,-0.005512642
000182,45.411960602,0.829222620,41.452583313,0.061485771,-0.007071264,0.998068154,-0.005423157
000183,45.412418365,0.829242349,41.448925018,0.063158043,-0.007063445,0.997963786,-0.005449528
000184,45.413013458,0.829271019,41.445354462,0.064864829,-0.007128924,0.997853279,-0.005535330
000185,45.413612366,0.829307377,41.441459656,0.066606209,-0.007201700,0.997738779,-0.005418318
000186,45.413887024,0.829289556,41.437118530,0.068347588,-0.007084367,0.997623920,-0.005008476
000187,45.414299011,0.829240143,41.432712555,0.070088729,-0.007048312,0.997505426,-0.004560252
000188,45.414966583,0.829238176,41.428493500,0.071829535,-0.007158542,0.997382283,-0.004243420
000189,45.415702820,0.829243720,41.424205780,0.073605061,-0.007310562,0.997253180,-0.003867538
000190,45.416725159,0.829264522,41.420001984,0.075414948,-0.007632523,0.997116804,-0.003544566
000191,45.417694092,0.829199791,41.415946960,0.077259503,-0.007907877,0.996974349,-0.003296494
000192,45.418365479,0.829064131,41.412090302,0.079138592,-0.007988335,0.996826708,-0.003143534
000193,45.418964386,0.828981459,41.408515930,0.081052087,-0.008000173,0.996672809,-0.003148590
000194,45.419872284,0.828979969,41.404899597,0.083000094,-0.008204088,0.996510923,-0.003127297
000195,45.420749664,0.828954935,41.401214600,0.084982485,-0.008388280,0.996342480,-0.003048870
000196,45.421798706,0.828927636,41.397872925,0.086999319,-0.008655557,0.996165752,-0.003178615
000197,45.423263550,0.828907311,41.394451141,0.089050248,-0.009178123,0.995979488,-0.003265760
000198,45.424568176,0.828819633,41.390705109,0.091135815,-0.009615938,0.995787263,-0.003127428
000199,45.425861359,0.828753233,41.386791229,0.093255624,-0.010052652,0.995587349,-0.002874689
000200,45.426940918,0.828690886,41.383144379,0.095409729,-0.010337633,0.995380580,-0.002758110
000201,45.427558899,0.828613698,41.379577637,0.097598553,-0.010322752,0.995168865,-0.002650145
000202,45.428077698,0.828576803,41.375988007,0.099821612,-0.010243244,0.994949579,-0.002505891
000203,45.428493500,0.828596056,41.372577667,0.102079108,-0.010086054,0.994722307,-0.002452218
000204,45.428730011,0.828548729,41.369216919,0.104370810,-0.009809538,0.994487226,-0.002400164
000205,45.429073334,0.828452706,41.365852356,0.106696516,-0.009593152,0.994242728,-0.002334930
000206,45.429546356,0.828359663,41.362659454,0.109056383,-0.009443218,0.993987918,-0.002366653
000207,45.429912567,0.828269958,41.359573364,0.111450322,-0.009211905,0.993724287,-0.002444553
000208,45.430461884,0.828216374,41.356258392,0.113878325,-0.009106223,0.993450224,-0.002374034
000209,45.431064606,0.828222394,41.352802277,0.116340205,-0.009042585,0.993165791,-0.002203956
000210,45.431297302,0.828215837,41.349441528,0.118836209,-0.008736351,0.992873430,-0.002048573
